Time (sec),Conc Ea (mol/L)
0.0,0.05
5.0,0.04882352941176471
10.0,0.0474264705882353
15.0,0.046102941176470597
20.0,0.04463235294117647
25.0,0.04345588235294117
30.0,0.042352941176470586
35.0,0.04139705882352607
40.0,0.040352941176470584
45.0,0.039308823529411764
50.0,0.03824264705882353
55.0,0.03740441176470351
60.0,0.036536764705882345
65.0,0.035705882352938104
70.0,0.03490441176470319
75.0,0.034132352941174136
80.0,0.03336764705882099
85.0,0.032749999999999474
90.0,0.032036764705880426
95.0,0.03136764705882218
100.0,0.030742647058822636
105.0,0.030139705882352166
110.0,0.029544117647058016
115.0,0.02897058823529344
120.0,0.02841911764705825
125.0,0.02787499999999941
130.0,0.027367647058823153
135.0,0.02687499999999966
140.0,0.02644852941176459
145.0,0.025977941176470287
150.0,0.02552205882352915
155.0,0.02507352941176444
160.0,0.024669117647058692
165.0,0.024220588235293782
170.0,0.023816176470588066
175.0,0.023397058823529167
180.0,0.023007352941176316
185.0,0.0226544117647058
190.0,0.022301470588235204
195.0,0.021948529411764603
200.0,0.021610294117646978
205.0,0.021301470588235255
210.0,0.020970588235294043
215.0,0.02063970588235286
220.0,0.02034558823529408
225.0,0.020029411764705803
230.0,0.01977941176470587
235.0,0.01933088235293955
240.0,0.019066176470588204
245.0,0.01883088235294117
250.0,0.01857352941176468
255.0,0.018330882352941155
260.0,0.01804411764705875
265.0,0.01783088235294117
270.0,0.01757352941176467
275.0,0.01736029411764705
280.0,0.017117647058823498
285.0,0.016867647058823487
290.0,0.016647058823529393
295.0,0.01648529411764706
300.0,0.016272058823529393
305.0,0.016080882352941174
310.0,0.015874999999999986
315.0,0.015676470588235285
320.0,0.015433823529411705
325.0,0.015286764705882352
330.0,0.01507352941176468
335.0,0.014926470588235288
340.0,0.014720588235294095
345.0,0.014595588235294117
350.0,0.014419117647058811
355.0,0.014249999999999988
360.0,0.014073529411764695
365.0,0.013926470588235287
370.0,0.013772058823529405
375.0,0.013610294117647054
380.0,0.0134485294117647
385.0,0.013308823529411762
390.0,0.013132352941176454
395.0,0.013029411764705885
400.0,0.012874999999999992
405.0,0.01274264705882352
410.0,0.012602941176470582
415.0,0.01246323529411764
420.0,0.01231617647058823
425.0,0.012198529411764705
430.0,0.012073529411764707
435.0,0.011963235294117646
440.0,0.011830882352941169
445.0,0.011705882352941172
450.0,0.011610294117647057
455.0,0.01149264705882352
460.0,0.011382352941176465
465.0,0.011257352941176468
470.0,0.011147058823529413
475.0,0.011029411764705881
480.0,0.010919117647058819
485.0,0.010816176470588235
490.0,0.01069117647058823
495.0,0.010617647058823523
500.0,0.010492647058823528
505.0,0.01041176470588235
510.0,0.010308823529411766
515.0,0.010213235294117643
520.0,0.010102941176470585
525.0,0.010102941176470587
530.0,0.009919117647058683
535.0,0.009830882352941175
540.0,0.009823529411764705
545.0,0.009720588235294118
550.0,0.009661764705882347
555.0,0.00957352941176471
560.0,0.009485294117647059
565.0,0.009411764705882349
570.0,0.00930147058823529
575.0,0.00923529411764706
580.0,0.009139705882352937
585.0,0.009066176470588227
590.0,0.008977941176470588
595.0,0.008897058823529412
600.0,0.008816176470588228
605.0,0.008757352941176471
610.0,0.00866911764705882
615.0,0.008602941176470588
620.0,0.00853676470588235
625.0,0.008463235294117646
630.0,0.008397058823529415
635.0,0.008316176470588237
640.0,0.008242647058823526
645.0,0.008176470588235295
650.0,0.00811029411764705
655.0,0.008058823529411768
660.0,0.007985294117647054
665.0,0.00792647058823529
670.0,0.007852941176470578
675.0,0.007801470588235294
680.0,0.00772794117647059
685.0,0.0076764705882352915
690.0,0.007602941176470587
695.0,0.007544117647058823
700.0,0.007477941176470591
705.0,0.007426470588235292
710.0,0.007360294117647055
715.0,0.0073088235294117634
720.0,0.007257352941176472
725.0,0.007191176470588227
730.0,0.007132352941176469
735.0,0.007073529411764704
740.0,0.007022058823529406
745.0,0.006963235294117648
750.0,0.006911764705882349
755.0,0.006860294117647052
760.0,0.0068088235294117665
765.0,0.006757352941176467
770.0,0.006713235294117642
775.0,0.006654411764705878
780.0,0.006610294117647052
785.0,0.006558823529411767
790.0,0.0065073529411764685
795.0,0.006455882352941171
800.0,0.006411764705882352
805.0,0.006352941176470581
810.0,0.00631617647058823
815.0,0.006264705882352944
820.0,0.006220588235294119
825.0,0.006169117647058821
830.0,0.006117647058823529
835.0,0.006073529411764704
840.0,0.006029411764705879
845.0,0.005985294117647053
850.0,0.005941176470588228
855.0,0.005897058823529417
860.0,0.00585294117647059
865.0,0.005823529411764705
870.0,0.005772058823529406
875.0,0.0057279411764705815
880.0,0.00569117647058823
885.0,0.005647058823529404
890.0,0.005610294117647052
895.0,0.005566176470588233
900.0,0.005522058823529409
905.0,0.00549264705882353
910.0,0.005448529411764704
915.0,0.005404411764705879
920.0,0.005375
925.0,0.005330882352941175
930.0,0.0052941176470588215
935.0,0.00525735294117647
940.0,0.0052205882352941175
945.0,0.005176470588235293
950.0,0.005147058823529407
955.0,0.005110294117647055
960.0,0.005073529411764702
965.0,0.005051470588235296
970.0,0.005007352941176471
975.0,0.004970588235294119
980.0,0.004933823529411767
985.0,0.004904411764705881
990.0,0.0048676470588235295
995.0,0.00483088235294117
1000.0,0.004794117647058818
1005.0,0.00476470588235294
1010.0,0.004727941176470587
1015.0,0.004698529411764701
1020.0,0.004661764705882349
1025.0,0.00463235294117647
1030.0,0.004595588235294119
1035.0,0.004566176470588232
1040.0,0.004544117647058819
1045.0,0.0045073529411764676
1050.0,0.004477941176470582
1055.0,0.00444117647058823
1060.0,0.00441176470588235
1065.0,0.004374999999999999
1070.0,0.004345588235294119
1075.0,0.004338235294117707
1080.0,0.0042941176470588215
1085.0,0.004264705882352936
1090.0,0.004227941176470584
1095.0,0.004213235294117644
1100.0,0.004176470588235292
1105.0,0.0041470588235294065
1110.0,0.004117647058823526
1115.0,0.004088235294117649
1120.0,0.004066176470588235
1125.0,0.004036764705882349
1130.0,0.003999999999999997
1135.0,0.003985294117647058
1140.0,0.003948529411764706
1145.0,0.003926470588235293
1150.0,0.0038970588235294075
1155.0,0.0038676470588235277
1160.0,0.0038455882352941154
1165.0,0.00381617647058823
1170.0,0.0037941176470588246
1175.0,0.0037720588235294113
1180.0,0.0037426470588235255
1185.0,0.0037132352941176465
1190.0,0.0036911764705882338
1195.0,0.0036691176470588214
1200.0,0.003639705882352936
1205.0,0.0036176470588235228
1210.0,0.0035882352941176434
1215.0,0.003566176470588231
1220.0,0.0035441176470588187
1225.0,0.003522058823529406
1230.0,0.0035073529411764662
1235.0,0.0034779411764705873
1240.0,0.003455882352941175
1245.0,0.0034338235294117626
1250.0,0.003404411764705883
1255.0,0.003382352941176471
1260.0,0.0033602941176470577
1265.0,0.0033382352941176453
1270.0,0.0033161764705882326
1275.0,0.003301470588235287
1280.0,0.003279411764705881
1285.0,0.0032499999999999946
1290.0,0.0032279411764705827
1295.0,0.0032058823529411765
1300.0,0.0031838235294117637
1305.0,0.003161764705882351
1310.0,0.0031470588235294117
1315.0,0.0031176470588235258
1320.0,0.0031029411764705865
1325.0,0.0030808823529411737
1330.0,0.003066176470588234
1335.0,0.003044117647058822
1340.0,0.003022058823529409
1345.0,0.002999999999999996
1350.0,0.002977941176470584
1355.0,0.0029558823529411715
1360.0,0.0029338235294117583
1365.0,0.002926470588235292
1370.0,0.0028970588235294062
1375.0,0.0028750000000000004
1380.0,0.002860294117647054
1385.0,0.0028455882352941145
1390.0,0.0028308823529411753
1395.0,0.002808823529411763
1400.0,0.00278676470588235
1405.0,0.0027647058823529374
1410.0,0.0027499999999999977
1415.0,0.0027352941176470584
1420.0,0.002705882352941172
1425.0,0.002691176470588233
1430.0,0.0026838235294117598
1435.0,0.002661764705882347
1440.0,0.0026470588235294077
1445.0,0.002624999999999995
1450.0,0.0026029411764705826
1455.0,0.0025808823529411763
1460.0,0.0025735294117647032
1465.0,0.0025514705882352905
1470.0,0.002529411764705878
1475.0,0.002514705882352939
1480.0,0.002499999999999999
1485.0,0.0024779411764705864
1490.0,0.002463235294117647
1495.0,0.002448529411764701
1500.0,0.0024338235294117617
1505.0,0.002419117647058822
1510.0,0.002397058823529409
1515.0,0.002389705882352936
1520.0,0.0023676470588235234
1525.0,0.002352941176470584
1530.0,0.0023308823529411713
1535.0,0.0023235294117647048
1540.0,0.0023014705882352924
1545.0,0.002294117647058819
1550.0,0.0022720588235294065
1555.0,0.0022573529411764673
1560.0,0.0022352941176470545
1565.0,0.002227941176470588
1570.0,0.0022132352941176487
1575.0,0.002198529411764702
1580.0,0.002183823529411763
1585.0,0.002169117647058823
1590.0,0.0021470588235294103
1595.0,0.0021397058823529377
1600.0,0.002132352941176471
1605.0,0.0021102941176470583
1610.0,0.002095588235294112
1615.0,0.0020735294117646993
1620.0,0.002066176470588233
1625.0,0.00204411764705882
1630.0,0.002029411764705881
1635.0,0.002014705882352935
1640.0,0.0020073529411764684
1645.0,0.001985294117647055
1650.0,0.0019779411764705825
1655.0,0.0019705882352941163
1660.0,0.0019485294117647031
1665.0,0.0019411764705882307
1670.0,0.0019191176470588238
1675.0,0.0019117647058823517
1680.0,0.001897058823529412
1685.0,0.0018823529411764726
1690.0,0.0018676470588235266
1695.0,0.0018602941176470598
1700.0,0.0018455882352941138
1705.0,0.001830882352941174
1710.0,0.0018161764705882345
1715.0,0.0018088235294117616
1720.0,0.0017941176470588217
1725.0,0.0017794117647058757
1730.0,0.0017647058823529363
1735.0,0.0017499999999999968
1740.0,0.0017352941176470573
1745.0,0.001720588235294111
1750.0,0.0017205882352941111
1755.0,0.0016985294117647038
1760.0,0.001691176470588232
1765.0,0.0016764705882352925
1770.0,0.0016544117647058782
1775.0,0.0016470588235294068
1780.0,0.0016397058823529403
1785.0,0.0016250000000000008
1790.0,0.0016176470588235277
1795.0,0.0016102941176470548
1800.0,0.0015882352941176464
1805.0,0.0015808823529411757
1810.0,0.0015661764705882358
1815.0,0.001558823529411763
1820.0,0.0015441176470588232
1825.0,0.0015294117647058772
1830.0,0.0015220588235294109
1835.0,0.0014999999999999948
1840.0,0.0014926470588235252
1845.0,0.001485294117647052
1850.0,0.0014779411764705857
1855.0,0.0014632352941176391
1860.0,0.0014485294117646999
1865.0,0.0014411764705882333
1870.0,0.0014338235294117602
1875.0,0.0014191176470588205
1880.0,0.0014044117647058815
1885.0,0.0013897058823529348
1890.0,0.0013897058823529348
1895.0,0.0013749999999999954
1900.0,0.0013676470588235292
1905.0,0.0013529411764705828
1910.0,0.0013382352941176431
1915.0,0.001330882352941177
1920.0,0.0013235294117647039
1925.0,0.001308823529411764
1930.0,0.0012941176470588245
1935.0,0.0012867647058823518
1940.0,0.0012867647058823518
1945.0,0.0012647058823529284
1950.0,0.0012573529411764727
1955.0,0.001242647058823526
1960.0,0.00123529411764706
1965.0,0.001227941176470587
1970.0,0.001220588235294114
1975.0,0.0012058823529411736
1980.0,0.0011911764705882343
1985.0,0.0011838235294117617
1990.0,0.0011764705882352888
1995.0,0.0011691176470588222
2000.0,0.0011617647058823493
2005.0,0.0011470588235294086
2010.0,0.0011323529411764626
2015.0,0.0011323529411764635
2020.0,0.001117647058823523
2025.0,0.0011102941176470574
2030.0,0.0010955882352941101
2035.0,0.0010882352941176448
2040.0,0.0010735294117647039
2045.0,0.0010661764705882323
2050.0,0.0010588235294117592
2055.0,0.0010514705882352928
2060.0,0.0010441176470588195
2065.0,0.0010294117647058783
2070.0,0.0010220588235294072
2075.0,0.0010147058823529406
2080.0,0.0010073529411764675
2085.0,0.0009852941176469927
2090.0,0.000985294117647055
2095.0,0.0009779411764705883
2100.0,0.0009632352941176459
2105.0,0.0009558823529411759
2110.0,0.0009485294117647027
2115.0,0.0009411764705882361
2120.0,0.0009264705882352864
2125.0,0.0009264705882352902
2130.0,0.0009117647058823463
2135.0,0.0008970588235294063
2140.0,0.000889705882352938
2145.0,0.0008823529411764649
2150.0,0.0008749999999999984
2155.0,0.0008749999999999983
2160.0,0.0008529411764705857
2165.0,0.0008529411764705858
2170.0,0.0008455882352941126
2175.0,0.0008382352941176397
2180.0,0.0008235294117646915
2185.0,0.0008161764705882336
2190.0,0.0008088235294117606
2195.0,0.0008014705882352875
2200.0,0.000794117647058821
2205.0,0.000779411764705869
2210.0,0.0007720588235294085
2215.0,0.0007720588235294085
2220.0,0.0007647058823529353
2225.0,0.0007499999999999794
2230.0,0.0007426470588235292
2235.0,0.0007426470588235292
2240.0,0.000727941176470563
2245.0,0.0007205882352941165
2250.0,0.0007132352941176438
2255.0,0.0007058823529411771
2260.0,0.000691176470588202
2265.0,0.0006911764705882311
2270.0,0.0006838235294117645
2275.0,0.0006691176470587886
2280.0,0.0006691176470588251
2285.0,0.0006544117647058363
2290.0,0.000654411764705879
2295.0,0.0006397058823528894
2300.0,0.0006397058823529394
2305.0,0.000624999999999941
2310.0,0.0006176470588235265
2315.0,0.0006176470588235267
2320.0,0.0006029411764705871
2325.0,0.0006029411764705872
2330.0,0.000588235294117641
2335.0,0.0005808823529411742
2340.0,0.0005735294117647011
2345.0,0.000566176470588228
2350.0,0.0005588235294117615
2355.0,0.0005514705882352885
2360.0,0.000551470588235289
2365.0,0.0005367647058823494
2370.0,0.0005294117647058756
2375.0,0.0005220588235294091
2380.0,0.0005147058823529359
2385.0,0.0005073529411764628
2390.0,0.0004999999999999961
2395.0,0.000492647058823523
2400.0,0.00048529411764705626
2405.0,0.00048529411764705767
2410.0,0.00047794117647058317
2415.0,0.0004705882352941099
2420.0,0.0004632352941176432
2425.0,0.0004558823529411699
2430.0,0.00044852941176470315
2435.0,0.00044117647058822983
2440.0,0.00043382352941175647
2445.0,0.00042647058823528955
2450.0,0.0004191176470588161
2455.0,0.0004117647058823491
2460.0,0.0004044117647058755
2465.0,0.0003970588235294018
2470.0,0.0003897058823529345
2475.0,0.0003823529411764605
2480.0,0.000374999999999993
2485.0,0.00037500000000000115
2490.0,0.00036764705882351873
2495.0,0.0003676470588235281
2500.0,0.0003602941176470442
2505.0,0.00034558823529411554
2510.0,0.0003455882352941155
2515.0,0.00033823529411763215
2520.0,0.0003235294117647029
2525.0,0.00031617647058820934
2530.0,0.0003161764705882364
2535.0,0.0003088235294117634
2540.0,0.0002941176470588238
2545.0,0.0002941176470588238
2550.0,0.00028676470588235073
2555.0,0.0002794117647058777
2560.0,0.0002720588235294112
2565.0,0.0002720588235294112
2570.0,0.0002647058823529381
2575.0,0.00025735294117646513
2580.0,0.0002426470588235256
2585.0,0.0002426470588235256
2590.0,0.00023529411764705251
2595.0,0.000227941176470586
2600.0,0.00022058823529411297
2605.0,0.00022058823529411297
2610.0,0.00020588235294117366
2615.0,0.0002058823529411734
2620.0,0.00019852941176470035
2625.0,0.00019852941176470035
2630.0,0.00019852941176470035
2635.0,0.00019117647058823387
2640.0,0.0001764705882352894
2645.0,0.00017647058823528776
2650.0,0.00016911764705882125
2655.0,0.0001617647058823482
2660.0,0.0001617647058823482
2665.0,0.00014705882352940866
2670.0,0.00014705882352940863
2675.0,0.00013970588235293562
2680.0,0.00013235294117646909
2685.0,0.00012499999999999605
2690.0,0.00011764705882352955
2695.0,0.00011764705882352954
2700.0,0.00011029411764705654
2705.0,0.00010294117647058356
2710.0,0.00010294117647058343
2715.0,8.82352941176439e-05
2720.0,8.823529411764388e-05
2725.0,7.352941176470448e-05
2730.0,8.088235294117501e-05
2735.0,6.617647058823254e-05
2740.0,6.617647058823128e-05
2745.0,5.882352941176476e-05
2750.0,5.882352941176476e-05
2755.0,4.4117647058825206e-05
2760.0,4.4117647058825206e-05
2765.0,3.676470588235224e-05
2770.0,2.9411764705879115e-05
2775.0,2.2058823529412603e-05
2780.0,2.2058823529412603e-05
2785.0,1.4705882352939662e-05
2790.0,1.470588235293956e-05
2795.0,1.470588235293956e-05
2800.0,0.0
